E(eV)	f1	f2
10.000	0.47014	2.2382	
10.145	0.41476	2.2046	
10.309	0.33974	2.1729	
10.476	0.25046	2.1441	
10.645	0.14141	2.1157	
10.817	-0.12186E-01	2.0931	
10.992	-0.20183	2.1206	
11.170	-0.38806	2.2071	
11.351	-0.56481	2.3265	
11.534	-0.72749	2.5005	
11.721	-0.83234	2.7047	
11.910	-0.90624	2.9061	
12.103	-0.95140	3.1074	
12.299	-0.95973	3.3021	
12.498	-0.96382	3.4799	
12.700	-0.95582	3.6590	
12.905	-0.93591	3.8317	
13.114	-0.90181	3.9967	
13.200	-0.87015	4.0660	
13.400	-0.83734	4.1490	
13.617	-0.81904	4.2851	
13.800	-0.78127	4.4019	
14.000	-0.77754	4.4848	
14.200	-0.75584	4.6137	
14.400	-0.75622	4.6852	
14.600	-0.77534	4.7802	
14.836	-0.82664	4.9275	
15.076	-0.87179	5.0890	
15.320	-0.92070	5.2778	
15.400	-0.94138	5.3406	
15.600	-0.97419	5.5700	
15.800	-0.99736	5.7675	
16.056	-1.0152	6.1046	
16.315	-0.95240	6.4614	
16.579	-0.79493	6.8390	
16.847	-0.58950	7.1548	
17.120	-0.37425	7.4778	
17.397	-0.54452E-01	7.8154	
17.400	-0.50172E-01	7.8195	
17.600	0.22000	8.0017	
17.885	0.58696	8.1560	
18.174	0.93746	8.3134	
18.400	1.2731	8.4367	
18.600	1.5692	8.4648	
18.901	1.9884	8.3732	
19.000	2.1046	8.3436	
19.200	2.2734	8.3176	
19.510	2.5803	8.2084	
19.826	2.8211	8.1007	
20.147	3.0321	7.9944	
20.473	3.2239	7.8894	
20.804	3.3989	7.7859	
21.140	3.5585	7.6837	
21.800	3.8252	7.5353	
22.000	3.9496	7.5141	
22.356	4.1346	7.4022	
22.717	4.3455	7.2691	
23.200	4.6172	7.0141	
23.800	4.8253	6.5606	
24.000	4.8452	6.4078	
24.388	4.8573	6.0413	
24.400	4.8718	6.0306	
24.600	4.8020	5.8837	
25.000	4.6733	5.5650	
25.400	4.4856	5.3645	
25.800	4.3042	5.1425	
26.000	4.1603	5.0389	
26.250	4.0297	4.9802	
27.000	3.5240	4.7734	
27.250	3.3194	4.7276	
27.691	2.9558	4.7432	
27.750	2.9270	4.7453	
28.000	2.7428	4.7785	
28.250	2.5658	4.7915	
28.707	2.2289	4.8791	
29.000	2.0315	4.9353	
29.250	1.8010	4.9625	
29.500	1.5888	5.0675	
29.750	1.3433	5.1335	
30.231	0.82192	5.4406	
30.720	0.39002	5.9545	
31.000	0.20585	6.2708	
31.250	0.12046	6.5936	
31.750	-0.58265E-02	7.1942	
32.000	0.28960E-01	7.4931	
32.400	0.12736	7.8749	
32.800	0.23809	8.0469	
33.200	0.11230	8.0693	
33.400	-0.75746E-01	8.1103	
33.500	-0.22263	8.1881	
33.800	-0.54218	8.6467	
34.000	-0.63282	9.0080	
34.550	-0.55963	9.8952	
34.600	-0.51542	9.9795	
34.800	-0.41339	10.236	
35.000	-0.37015	10.406	
35.566	-0.17727	10.966	
36.141	-0.29096E-01	11.556	
36.726	0.14996	12.178	
37.320	0.38167	12.833	
37.924	0.68779	13.524	
38.537	1.0645	14.213	
39.160	1.5637	14.904	
39.794	2.2761	15.628	
40.437	3.0404	16.074	
41.091	3.7403	16.381	
43.118	5.6814	17.338	
43.815	6.4841	17.669	
44.524	7.3215	17.841	
45.244	8.0918	17.956	
46.719	9.6148	18.188	
47.475	10.475	18.306	
48.243	11.403	18.332	
50.622	14.202	17.818	
52.272	16.100	16.883	
53.118	16.996	16.419	
53.977	17.807	15.495	
54.850	18.464	14.576	
55.737	18.848	13.712	
56.639	19.140	12.899	
58.486	19.507	11.415	
59.432	19.598	10.738	
60.500	19.543	10.033	
60.750	19.621	10.482	
61.000	20.135	10.130	
61.250	19.976	9.2647	
61.500	19.643	9.4980	
61.750	19.908	9.6491	
62.000	19.968	8.9819	
62.250	19.714	8.9456	
62.500	19.723	9.1338	
62.750	20.097	9.1232	
63.000	20.122	8.4738	
63.250	19.967	8.3603	
63.500	19.875	8.4019	
63.750	19.998	8.1937	
64.000	20.049	8.2293	
64.250	19.775	7.4483	
64.500	19.860	8.5224	
64.750	20.313	7.6420	
65.000	20.112	7.3040	
65.250	19.936	7.2229	
65.500	19.823	7.0935	
65.750	19.871	7.2507	
65.999	19.956	6.9785	
66.250	19.957	6.8977	
66.750	20.015	6.6609	
67.500	19.952	6.0708	
67.750	19.975	6.0102	
68.000	19.972	5.7727	
68.500	19.854	5.4942	
68.750	19.797	5.2866	
69.000	19.700	5.1468	
69.250	19.628	5.0848	
69.500	19.563	4.8922	
69.750	19.456	4.8454	
70.000	19.384	4.7321	
70.250	19.346	4.7283	
70.500	19.364	4.5990	
70.750	19.291	4.4167	
71.000	19.227	4.3522	
71.250	19.115	4.1708	
71.500	18.980	4.1199	
71.750	18.907	4.1394	
72.000	18.900	4.0466	
72.250	18.841	3.9794	
72.500	18.783	3.8668	
72.750	18.697	3.8527	
73.250	18.631	3.6793	
73.500	18.550	3.6542	
73.750	18.526	3.5891	
74.000	18.457	3.5022	
74.250	18.394	3.4571	
74.500	18.347	3.4458	
75.000	18.271	3.2834	
76.000	18.124	3.0342	
77.000	17.941	2.7728	
77.250	17.885	2.7045	
77.500	17.840	2.6523	
78.500	17.607	2.4188	
78.750	17.562	2.3719	
79.500	17.382	2.2121	
81.000	17.028	1.9599	
81.750	16.861	1.8606	
82.000	16.798	1.8211	
82.250	16.749	1.7981	
82.750	16.630	1.7395	
84.250	16.321	1.6039	
85.000	16.196	1.5530	
85.250	16.132	1.5029	
86.000	15.975	1.4639	
86.500	15.886	1.4316	
86.750	15.831	1.4294	
87.000	15.799	1.4125	
87.250	15.748	1.4071	
87.500	15.699	1.3865	
89.250	15.431	1.3195	
90.001	15.317	1.2823	
91.001	15.162	1.2493	
91.250	15.131	1.2448	
91.500	15.093	1.2350	
91.750	15.064	1.2313	
92.250	14.990	1.2097	
92.500	14.960	1.2052	
92.750	14.922	1.1944	
93.250	14.854	1.1814	
93.750	14.784	1.1739	
94.000	14.755	1.1653	
94.250	14.717	1.1623	
95.000	14.622	1.1433	
95.500	14.553	1.1415	
96.000	14.490	1.1318	
97.000	14.361	1.1257	
97.250	14.334	1.1281	
97.750	14.275	1.1230	
99.500	14.073	1.1289	
100.	14.019	1.1242	
101.	13.915	1.1505	
101.50	13.867	1.1403	
102.	13.812	1.1431	
102.50	13.761	1.1696	
103.	13.723	1.1640	
103.50	13.679	1.1877	
104.	13.646	1.1797	
104.50	13.595	1.1849	
105.	13.555	1.1975	
105.50	13.511	1.2018	
106.	13.472	1.2122	
106.50	13.436	1.2280	
107.	13.405	1.2247	
107.50	13.366	1.2353	
108.	13.326	1.2318	
108.50	13.286	1.2539	
109.	13.260	1.2633	
109.50	13.232	1.2613	
111.50	13.088	1.2850	
112.	13.055	1.2842	
112.50	13.023	1.2967	
113.50	12.946	1.3100	
114.	12.918	1.3298	
114.50	12.887	1.3320	
115.50	12.826	1.3679	
116.	12.803	1.3716	
116.50	12.779	1.3820	
117.	12.748	1.3859	
118.	12.697	1.4193	
118.50	12.672	1.4197	
119.	12.651	1.4362	
119.50	12.623	1.4451	
120.	12.618	1.4617	
121.50	12.569	1.4690	
122.	12.543	1.4549	
123.	12.479	1.4604	
124.	12.427	1.4736	
125.	12.366	1.4951	
126.	12.318	1.5040	
128.	12.259	1.5742	
129.	12.216	1.5453	
130.	12.152	1.5613	
131.	12.111	1.5972	
132.	12.077	1.6004	
134.	11.991	1.6249	
135.	11.941	1.6229	
136.	11.903	1.6565	
138.	11.799	1.6754	
139.	11.769	1.7123	
140.	11.738	1.7226	
141.	11.687	1.7056	
142.	11.633	1.7630	
143.	11.606	1.7684	
144.	11.564	1.8015	
146.	11.499	1.8182	
147.	11.452	1.8541	
148.	11.424	1.8782	
149.	11.395	1.8887	
151.	11.326	1.9374	
152.	11.304	1.9469	
153.	11.276	1.9676	
154.	11.251	1.9710	
156.	11.195	2.0033	
160.	11.071	2.0258	
161.	11.035	2.0253	
162.	10.993	2.0418	
163.	10.969	2.0362	
167.	10.791	2.0739	
168.	10.754	2.0645	
169.	10.712	2.1038	
170.	10.686	2.0963	
172.	10.599	2.1206	
173.	10.569	2.1140	
175.	10.475	2.1319	
176.	10.439	2.1198	
179.	10.282	2.1685	
181.	10.181	2.1569	
182.	10.128	2.1816	
183.	10.078	2.1883	
184.	10.037	2.2121	
185.	9.9901	2.1972	
186.	9.9143	2.1940	
187.	9.8258	2.2131	
188.	9.7901	2.2918	
190.	9.7192	2.3237	
191.	9.6856	2.3325	
192.	9.6407	2.3288	
193.	9.5970	2.3394	
195.	9.4855	2.3329	
197.	9.3705	2.3555	
200.	9.1718	2.3696	
201.	9.1324	2.3994	
203.	8.9953	2.3822	
204.	8.9343	2.4012	
205.	8.8612	2.3928	
206.	8.8110	2.4066	
212.	8.3237	2.4346	
215.	8.0668	2.4666	
216.	7.9698	2.4594	
218.	7.7714	2.4854	
220.	7.5672	2.4896	
222.	7.3431	2.5100	
223.	7.2153	2.5051	
225.	6.9336	2.5177	
226.	6.7741	2.5394	
227.	6.5508	2.5309	
228.	6.4206	2.7567	
229.	6.3403	2.7394	
230.	6.1705	2.7461	
231.	6.0176	2.8767	
232.	5.9252	2.9228	
233.	5.7822	2.9446	
234.	5.6379	3.0038	
235.	5.4856	3.0444	
236.	5.3229	3.0694	
237.	5.1076	3.1097	
240.	4.4367	3.4591	
241.	4.2665	3.6668	
242.	4.1277	3.7976	
243.	3.9679	3.9683	
244.	3.8587	4.1667	
245.	3.8218	4.3335	
246.	3.5890	4.3475	
249.98	2.9075	4.6864	
251.	2.6402	4.7766	
253.	2.1185	5.1726	
255.	1.5890	5.6782	
258.	0.90261	6.6943	
260.	0.57314	7.5239	
262.	0.37858	8.3793	
263.	0.31943	8.8838	
266.	0.55549	10.242	
267.	0.70475	10.658	
269.	0.99837	11.277	
274.	1.9392	12.629	
276.	2.3921	13.077	
278.	2.8279	13.323	
281.	3.2887	13.531	
283.	3.4855	13.712	
287.58	3.8464	14.202	
292.23	4.1772	14.709	
295.	4.3059	15.016	
299.	4.5112	15.625	
300.	4.6093	15.675	
301.	4.6658	15.932	
303.	4.6921	16.174	
304.	4.8814	16.572	
305.	5.0668	16.500	
307.	5.1531	16.937	
309.	5.3752	17.267	
310.	5.6044	17.492	
314.	6.2798	17.996	
319.	7.1847	18.406	
323.	7.9436	18.619	
324.	8.0384	18.551	
327.	8.3902	18.548	
331.	8.6990	18.578	
335.	8.9169	18.765	
338.	9.2174	18.969	
343.	9.7483	19.173	
344.	9.8706	19.128	
349.56	10.063	19.315	
350.	10.168	19.330	
354.	10.443	19.573	
359.73	10.956	19.636	
363.	11.144	19.673	
367.	11.275	19.850	
370.	11.495	19.913	
370.75	11.377	19.682	
371.01	11.451	19.808	
371.50	11.363	19.812	
371.75	11.471	19.870	
372.25	11.410	19.789	
372.75	11.417	19.781	
373.50	11.284	19.895	
375.25	11.394	19.954	
376.	11.253	20.018	
376.25	11.340	19.986	
376.50	11.132	20.077	
378.51	11.374	20.244	
378.75	11.172	20.333	
379.50	11.292	20.280	
379.74	11.090	20.418	
380.25	11.215	20.431	
380.49	11.065	20.579	
380.99	10.991	20.555	
383.	11.232	20.831	
383.50	11.199	20.747	
383.76	10.993	20.903	
386.	11.291	21.077	
386.50	11.049	21.128	
386.74	11.074	21.252	
387.75	10.898	21.327	
388.25	10.817	21.445	
388.75	10.681	21.460	
389.50	10.420	21.748	
390.	10.245	21.843	
391.25	9.5194	22.638	
391.75	9.2143	23.188	
392.25	8.9573	23.961	
392.75	8.7776	24.982	
393.	8.8830	25.746	
393.25	9.0960	26.412	
393.49	9.5599	27.256	
393.75	10.302	27.881	
393.99	11.121	28.282	
394.26	12.029	28.500	
394.50	12.877	28.577	
394.75	13.723	28.499	
395.25	15.283	27.757	
395.50	15.803	27.231	
395.76	16.070	26.582	
396.75	16.461	24.829	
397.	16.531	24.562	
397.25	16.490	24.155	
397.75	16.390	23.673	
399.	15.786	22.967	
400.26	15.321	22.689	
401.49	14.886	22.718	
401.76	14.896	22.805	
402.25	14.785	22.839	
403.25	14.679	23.145	
403.50	14.746	23.281	
403.75	14.752	23.314	
404.	14.910	23.461	
404.75	15.222	23.561	
405.50	15.380	23.417	
406.25	15.499	23.302	
406.50	15.455	23.333	
407.50	15.533	23.131	
408.50	15.301	23.097	
409.26	15.126	23.328	
409.51	15.054	23.332	
410.26	14.934	24.023	
411.26	15.713	25.245	
411.77	16.550	25.365	
412.49	17.500	24.918	
412.99	18.019	24.497	
413.25	18.156	24.144	
414.50	18.129	23.118	
414.75	18.095	23.053	
415.	17.917	22.814	
416.75	17.594	22.271	
417.74	17.420	22.250	
418.	17.420	22.168	
419.75	16.967	22.266	
420.	16.927	22.359	
420.50	16.941	22.367	
420.75	16.983	22.675	
421.	16.960	22.465	
421.50	17.073	22.629	
422.75	17.442	22.642	
423.	17.443	22.467	
423.25	17.420	22.571	
423.50	17.447	22.489	
424.	17.499	22.576	
424.50	17.463	22.423	
424.75	17.571	22.539	
425.01	17.608	22.401	
425.75	17.622	22.284	
427.	17.592	22.327	
427.25	17.461	22.255	
429.25	17.332	22.344	
429.50	17.443	22.412	
431.75	17.461	22.449	
432.	17.499	22.518	
432.25	17.417	22.469	
432.50	17.554	22.699	
432.75	17.583	22.519	
433.	17.745	22.492	
434.25	17.545	22.646	
435.	17.620	22.628	
435.25	17.500	22.739	
436.	17.581	22.744	
437.50	17.783	22.928	
437.75	17.711	22.880	
439.25	17.803	23.187	
445.	18.979	23.610	
449.	19.732	23.517	
450.	20.050	23.649	
451.	20.162	23.190	
453.	20.474	23.060	
454.	20.606	22.888	
455.	20.525	22.561	
456.	20.575	22.724	
458.	20.669	22.679	
460.	20.850	22.498	
461.	20.936	22.535	
462.	20.864	22.374	
467.	21.099	22.001	
468.	21.180	22.007	
469.	21.065	21.847	
470.	21.100	22.116	
471.	21.355	22.160	
472.	21.261	21.772	
475.	21.440	21.749	
476.	21.275	21.644	
478.	21.238	21.767	
479.	21.399	22.084	
480.	21.754	21.753	
484.	21.350	21.660	
485.	21.421	21.556	
486.	21.572	22.057	
487.	21.733	21.559	
488.	21.700	21.848	
489.	21.802	21.610	
490.	21.954	21.714	
493.	21.843	21.476	
496.	21.787	21.638	
497.	21.809	21.612	
498.	21.864	21.679	
499.	21.819	21.651	
501.	21.825	21.873	
502.	21.958	22.057	
503.	22.065	21.816	
504.	21.979	22.022	
505.	22.184	22.089	
506.	22.220	22.045	
507.	22.125	21.862	
508.	22.118	22.398	
509.	22.377	22.236	
510.	22.440	22.401	
511.	22.535	22.302	
513.	22.568	22.347	
515.	22.652	22.570	
516.	22.857	22.939	
517.	23.166	22.683	
518.	23.185	22.752	
519.	23.298	22.704	
521.	23.751	22.938	
522.	23.761	22.572	
523.	23.828	22.852	
524.	23.951	22.697	
525.	24.008	22.761	
526.	24.208	22.979	
527.	24.395	22.710	
528.	24.697	23.011	
529.	24.771	22.291	
530.	24.447	22.406	
531.	24.717	22.989	
532.	25.132	22.625	
533.	25.409	22.542	
534.	25.369	22.101	
535.	25.041	21.885	
536.	25.346	22.913	
537.	25.836	21.961	
538.	25.647	21.865	
539.	25.488	21.617	
540.	25.428	21.956	
541.	25.539	21.813	
542.	25.762	22.145	
543.01	26.115	21.709	
544.	26.248	21.556	
545.	25.729	20.563	
546.	26.359	21.607	
549.	26.217	21.402	
550.	26.129	20.961	
551.	25.888	21.239	
554.	26.534	20.975	
555.	26.195	20.691	
556.	26.153	20.776	
557.	26.125	21.055	
558.	26.316	20.576	
559.	26.049	20.867	
560.	26.028	20.570	
562.	26.179	21.156	
562.99	26.332	20.823	
564.	26.283	21.133	
565.	26.578	20.829	
566.	26.396	20.852	
567.	26.525	20.744	
569.01	26.233	20.797	
570.	26.480	20.889	
572.	26.371	21.287	
580.	27.811	20.062	
582.	27.307	20.137	
584.	27.110	19.856	
586.	26.869	20.140	
589.99	26.937	20.412	
600.	27.816	20.508	
602.	27.818	20.364	
604.	27.922	20.423	
610.	28.365	20.274	
612.	28.465	20.147	
614.	28.560	20.116	
620.	28.755	19.832	
648.	29.602	19.281	
652.	29.761	19.156	
656.	29.867	19.112	
657.99	29.984	19.008	
662.	30.037	18.970	
664.	30.180	18.882	
674.74	30.374	18.718	
694.	31.129	18.379	
702.	31.509	18.128	
703.99	31.514	18.003	
710.	31.601	17.806	
712.	31.738	17.833	
714.	31.810	17.678	
722.	31.804	17.410	
724.	31.826	17.473	
728.01	31.785	17.316	
744.	32.291	17.018	
750.	32.433	16.955	
768.	32.928	16.471	
770.	32.979	16.469	
772.	33.110	16.366	
774.	33.121	16.337	
776.	33.310	16.163	
788.55	33.155	15.833	
806.	33.362	15.409	
815.99	33.452	15.322	
830.01	33.780	15.064	
832.	33.761	15.066	
834.01	33.865	14.973	
836.	33.837	14.947	
838.	33.912	14.854	
840.	33.830	14.861	
862.	34.323	14.356	
871.99	34.417	14.075	
880.	34.443	13.905	
882.	34.414	13.912	
888.	34.491	13.725	
896.	34.571	13.643	
897.99	34.579	13.564	
899.99	34.558	13.581	
906.	34.666	13.464	
907.99	34.662	13.358	
916.	34.726	13.280	
918.	34.743	13.213	
920.01	34.732	13.220	
922.	34.769	13.154	
924.	34.806	13.227	
926.	34.888	13.050	
928.01	34.818	13.038	
958.27	35.037	12.422	
973.77	35.039	12.165	
1005.5	35.178	11.820	
1125.1	35.619	10.216	
1299.8	35.823	8.4527	
1575.8	35.583	6.4815	
1850.1	34.838	5.1424	
2069.9	33.822	4.3630	
2207.2	32.828	3.9670	
2316.0	31.627	3.6938	
2353.5	31.053	3.6069	
2391.5	30.320	3.5221	
2430.2	29.315	3.4393	
2469.5	27.730	3.3585	
2493.0	26.057	3.3117	
2520.1	11.766	3.2590	
2520.3	11.767	11.204	
2526.0	22.011	11.167	
2566.9	26.822	10.911	
2592.0	27.296	10.758	
2625.0	21.099	10.563	
2625.2	21.105	14.499	
2626.0	23.881	14.493	
2668.5	29.690	14.172	
2711.6	31.221	13.858	
2755.5	32.201	13.551	
2800.1	32.834	13.250	
2839.0	33.004	12.997	
2865.4	30.307	12.830	
2865.6	30.310	14.582	
2876.0	33.064	14.507	
2922.5	34.620	14.178	
2969.8	35.484	13.856	
3066.6	36.729	13.234	
3217.9	38.059	12.353	
3431.1	39.335	11.233	
3717.7	40.389	9.9366	
4093.4	41.226	8.5481	
4729.4	41.883	6.7744	
5733.5	42.178	4.9115	
6731.3	42.155	3.7385	
10053.	41.662	1.8634	
16799.	40.506	0.75206	
18497.	39.873	0.63364	
19100.	39.427	0.59840	
19409.	39.050	0.58150	
19723.	38.347	0.56508	
20000.	30.439	0.55116	
20000.	30.439	3.7149	
20042.	36.530	3.7029	
20366.	38.799	3.6106	
20695.	39.495	3.5201	
21370.	40.241	3.3445	
22787.	41.006	3.0143	
25495.	41.649	2.5019	
30000.	42.037	1.8942	
